     Pressure Height (m) sandday plowedday grassday snowday sandnight plowednight grassnight snownight .1-.3
             above surf     K         K         K         K         K         K
      1000  0              285       283       281       273       278.4     276.4     274.4     268
       990  80.9705308     284.2     282.2     280.2     273.2     278.5     276.5     274.5     270
       980  162.852307     283.4     281.4     279.4     273.4     278.7     276.7     274.7     271.8
       970  245.694059     282.5     280.5     278.6     273.7     278.8     276.8     274.9     273.2
       960  329.485335     281.7     279.7     277.7     274.6     279.5     277.5     275.5     274.6
       950  414.246019     280.9     278.9     276.9     275.9     280.1     278.1     276.1     275.9
       940  499.996631     280       278       276.8     276.8     280       278       276.8     276.8
       930  586.758344     279.2     277.2     277.2     277.2     279.2     277.2     277.2     277.2
       920  674.4897       278.3     277       277       277       278.3     277       277       277
       910  763.115875     277.4     276.8     276.8     276.8     277.4     276.8     276.8     276.8
       900  852.640464     276.5     276.5     276.5     276.5     276.5     276.5     276.5     276.5
       890  942.952656     275.5     275.5     275.5     275.5     275.2     275.2     275.2     275.5
       880  1034.00407     274.8     274.8     274.8     274.8     274.8     274.8     274.8     274.8
       870  1125.84507     274       274       274       274       274       274       274       274
       860  1218.44313     273       273       273       273       273       273       273       273
       850  1311.81595     272.2     272.2     272.2     272.2     272.2     272.2     272.2     272.2
       840  1405.99922     271.3     271.3     271.3     271.3     271.3     271.3     271.3     271.3
